# MSD gathered over 1e+06 ps with 50001 restarts
# Diffusion constants fitted from time 100000 to 900000 ps
# D[         P] = 0.0009 (+/- 0.0005) (1e-5 cm^2/s)
         0           0
        20    0.011517
        40   0.0161425
        60    0.019788
        80   0.0228932
       100   0.0256489
       120   0.0281421
       140   0.0304314
       160   0.0325675
       180   0.0345522
       200   0.0364409
       220   0.0382208
       240   0.0399216
       260   0.0415337
       280   0.0430782
       300   0.0445626
       320   0.0459989
       340   0.0473734
       360   0.0487014
       380   0.0499977
       400   0.0512365
       420   0.0524519
       440    0.053617
       460    0.054753
       480   0.0558582
       500   0.0569385
       520   0.0579892
       540    0.059016
       560   0.0600226
       580   0.0610125
       600    0.061978
       620   0.0629264
       640    0.063851
       660   0.0647567
       680    0.065649
       700    0.066521
       720   0.0673717
       740    0.068213
       760   0.0690378
       780   0.0698462
       800   0.0706411
       820   0.0714231
       840    0.072189
       860   0.0729409
       880   0.0736934
       900   0.0744293
       920   0.0751571
       940   0.0758665
       960    0.076569
       980   0.0772665
      1000    0.077952
      1020   0.0786182
      1040   0.0792846
      1060   0.0799437
      1080   0.0805915
      1100   0.0812307
      1120   0.0818597
      1140   0.0824853
      1160   0.0830981
      1180      0.0837
      1200   0.0843066
      1220   0.0848949
      1240   0.0854847
      1260   0.0860591
      1280    0.086629
      1300    0.087201
      1320    0.087767
      1340   0.0883159
      1360   0.0888589
      1380   0.0893962
      1400   0.0899287
      1420   0.0904604
      1440   0.0909899
      1460   0.0915084
      1480   0.0920272
      1500   0.0925398
      1520   0.0930463
      1540   0.0935494
      1560   0.0940526
      1580   0.0945487
      1600   0.0950378
      1620   0.0955218
      1640   0.0960041
      1660   0.0964831
      1680   0.0969573
      1700   0.0974379
      1720    0.097902
      1740   0.0983584
      1760   0.0988223
      1780   0.0992698
      1800   0.0997212
      1820     0.10017
      1840    0.100616
      1860    0.101062
      1880    0.101497
      1900    0.101937
      1920    0.102367
      1940    0.102793
      1960     0.10322
      1980    0.103641
      2000    0.104065
      2020    0.104483
      2040     0.10489
      2060    0.105291
      2080    0.105696
      2100    0.106099
      2120    0.106498
      2140    0.106893
      2160    0.107289
      2180    0.107671
      2200    0.108063
      2220    0.108444
      2240    0.108828
      2260    0.109209
      2280    0.109585
      2300    0.109958
      2320    0.110335
      2340    0.110715
      2360    0.111085
      2380    0.111446
      2400    0.111805
      2420    0.112163
      2440    0.112514
      2460    0.112868
      2480    0.113217
      2500    0.113559
      2520    0.113906
      2540    0.114253
      2560    0.114592
      2580    0.114927
      2600     0.11526
      2620    0.115601
      2640    0.115935
      2660     0.11627
      2680    0.116602
      2700    0.116938
      2720    0.117283
      2740    0.117614
      2760    0.117946
      2780    0.118282
      2800    0.118615
      2820    0.118948
      2840    0.119263
      2860    0.119584
      2880    0.119906
      2900    0.120221
      2920    0.120533
      2940     0.12085
      2960    0.121165
      2980    0.121476
      3000    0.121797
      3020    0.122104
      3040     0.12242
      3060    0.122734
      3080    0.123043
      3100     0.12335
      3120    0.123668
      3140    0.123985
      3160    0.124291
      3180    0.124595
      3200    0.124904
      3220    0.125213
      3240    0.125524
      3260    0.125832
      3280    0.126141
      3300    0.126447
      3320    0.126747
      3340    0.127055
      3360    0.127354
      3380    0.127653
      3400    0.127951
      3420    0.128239
      3440    0.128526
      3460    0.128814
      3480      0.1291
      3500    0.129384
      3520    0.129665
      3540    0.129956
      3560     0.13024
      3580    0.130522
      3600     0.13081
      3620    0.131075
      3640    0.131352
      3660    0.131629
      3680    0.131909
      3700    0.132188
      3720    0.132464
      3740    0.132736
      3760    0.133012
      3780    0.133287
      3800    0.133561
      3820    0.133822
      3840    0.134088
      3860    0.134349
      3880    0.134617
      3900    0.134876
      3920    0.135138
      3940    0.135401
      3960    0.135657
      3980    0.135914
      4000    0.136168
      4020    0.136421
      4040    0.136673
      4060    0.136928
      4080    0.137174
      4100    0.137428
      4120    0.137677
      4140    0.137925
      4160    0.138177
      4180    0.138431
      4200    0.138672
      4220    0.138924
      4240    0.139166
      4260    0.139416
      4280    0.139653
      4300    0.139904
      4320    0.140157
      4340    0.140403
      4360    0.140656
      4380    0.140902
      4400    0.141149
      4420    0.141395
      4440    0.141639
      4460    0.141878
      4480    0.142125
      4500    0.142366
      4520    0.142603
      4540    0.142844
      4560    0.143083
      4580    0.143315
      4600    0.143552
      4620    0.143796
      4640    0.144026
      4660    0.144269
      4680    0.144501
      4700    0.144733
      4720    0.144968
      4740    0.145199
      4760    0.145425
      4780    0.145653
      4800    0.145878
      4820    0.146107
      4840    0.146347
      4860    0.146576
      4880     0.14679
      4900    0.147012
      4920    0.147226
      4940    0.147443
      4960    0.147649
      4980    0.147864
      5000    0.148083
      5020      0.1483
      5040    0.148525
      5060    0.148741
      5080    0.148957
      5100    0.149174
      5120    0.149382
      5140      0.1496
      5160    0.149813
      5180    0.150021
      5200    0.150235
      5220    0.150445
      5240    0.150658
      5260     0.15087
      5280    0.151072
      5300    0.151283
      5320    0.151493
      5340    0.151697
      5360      0.1519
      5380    0.152109
      5400    0.152318
      5420    0.152527
      5440    0.152744
      5460    0.152954
      5480    0.153174
      5500    0.153381
      5520    0.153594
      5540     0.15381
      5560     0.15401
      5580    0.154221
      5600    0.154423
      5620    0.154629
      5640    0.154831
      5660    0.155038
      5680     0.15524
      5700    0.155442
      5720    0.155648
      5740    0.155857
      5760    0.156069
      5780    0.156274
      5800    0.156471
      5820    0.156673
      5840    0.156866
      5860    0.157072
      5880    0.157261
      5900     0.15747
      5920    0.157672
      5940     0.15787
      5960    0.158077
      5980    0.158269
      6000    0.158451
      6020    0.158645
      6040    0.158839
      6060    0.159039
      6080    0.159235
      6100    0.159428
      6120    0.159636
      6140    0.159841
      6160    0.160055
      6180    0.160256
      6200    0.160452
      6220    0.160647
      6240    0.160846
      6260    0.161043
      6280    0.161244
      6300    0.161443
      6320     0.16164
      6340    0.161827
      6360    0.162019
      6380    0.162204
      6400    0.162398
      6420    0.162593
      6440    0.162784
      6460    0.162977
      6480    0.163166
      6500    0.163346
      6520    0.163536
      6540    0.163731
      6560    0.163923
      6580    0.164109
      6600    0.164305
      6620    0.164493
      6640    0.164685
      6660    0.164873
      6680    0.165061
      6700    0.165251
      6720     0.16544
      6740    0.165633
      6760    0.165827
      6780    0.166023
      6800    0.166217
      6820    0.166412
      6840    0.166604
      6860    0.166797
      6880    0.166982
      6900    0.167167
      6920    0.167348
      6940    0.167537
      6960    0.167719
      6980    0.167907
      7000    0.168083
      7020    0.168265
      7040    0.168455
      7060    0.168636
      7080    0.168821
      7100    0.169002
      7120    0.169186
      7140    0.169366
      7160    0.169547
      7180    0.169726
      7200    0.169907
      7220    0.170092
      7240    0.170272
      7260    0.170454
      7280     0.17064
      7300    0.170828
      7320    0.171004
      7340    0.171191
      7360    0.171376
      7380    0.171554
      7400    0.171737
      7420    0.171904
      7440    0.172074
      7460    0.172254
      7480    0.172433
      7500    0.172614
      7520    0.172794
      7540    0.172965
      7560    0.173143
      7580    0.173321
      7600    0.173484
      7620    0.173653
      7640    0.173824
      7660    0.174006
      7680    0.174179
      7700    0.174363
      7720    0.174538
      7740    0.174717
      7760    0.174896
      7780    0.175075
      7800    0.175239
      7820    0.175408
      7840    0.175576
      7860    0.175752
      7880    0.175934
      7900    0.176108
      7920     0.17628
      7940    0.176457
      7960    0.176627
      7980      0.1768
      8000    0.176981
      8020     0.17715
      8040    0.177313
      8060    0.177486
      8080    0.177651
      8100    0.177825
      8120       0.178
      8140    0.178178
      8160    0.178346
      8180    0.178513
      8200    0.178681
      8220    0.178844
      8240    0.179008
      8260    0.179181
      8280    0.179358
      8300    0.179529
      8320    0.179699
      8340    0.179869
      8360    0.180036
      8380    0.180197
      8400    0.180381
      8420    0.180548
      8440    0.180714
      8460    0.180885
      8480     0.18106
      8500    0.181227
      8520    0.181405
      8540    0.181574
      8560    0.181746
      8580    0.181918
      8600    0.182085
      8620    0.182257
      8640    0.182417
      8660    0.182581
      8680    0.182735
      8700     0.18291
      8720    0.183076
      8740    0.183247
      8760     0.18342
      8780    0.183589
      8800    0.183762
      8820    0.183933
      8840    0.184099
      8860    0.184257
      8880    0.184432
      8900    0.184599
      8920    0.184766
      8940    0.184933
      8960    0.185103
      8980     0.18527
      9000    0.185434
      9020    0.185602
      9040     0.18577
      9060    0.185942
      9080     0.18611
      9100    0.186279
      9120    0.186445
      9140    0.186605
      9160    0.186767
      9180    0.186934
      9200    0.187095
      9220    0.187257
      9240    0.187415
      9260    0.187572
      9280    0.187733
      9300    0.187891
      9320    0.188058
      9340    0.188217
      9360    0.188379
      9380    0.188538
      9400      0.1887
      9420    0.188856
      9440    0.189016
      9460    0.189178
      9480    0.189335
      9500    0.189493
      9520    0.189659
      9540    0.189824
      9560    0.189981
      9580    0.190139
      9600    0.190304
      9620    0.190462
      9640     0.19062
      9660    0.190781
      9680    0.190937
      9700    0.191091
      9720    0.191248
      9740    0.191397
      9760     0.19155
      9780     0.19171
      9800    0.191862
      9820    0.192018
      9840    0.192169
      9860    0.192321
      9880    0.192479
      9900     0.19264
      9920    0.192792
      9940    0.192948
      9960    0.193104
      9980    0.193259
     10000    0.193402
     10020    0.193555
     10040    0.193712
     10060    0.193861
     10080    0.194014
     10100    0.194171
     10120     0.19432
     10140    0.194473
     10160    0.194628
     10180    0.194775
     10200    0.194925
     10220     0.19508
     10240    0.195235
     10260     0.19539
     10280    0.195546
     10300    0.195704
     10320    0.195857
     10340    0.196009
     10360    0.196148
     10380    0.196301
     10400    0.196447
     10420      0.1966
     10440    0.196745
     10460    0.196886
     10480    0.197028
     10500    0.197172
     10520    0.197324
     10540    0.197469
     10560    0.197628
     10580    0.197779
     10600    0.197927
     10620    0.198077
     10640    0.198221
     10660    0.198367
     10680    0.198506
     10700    0.198652
     10720    0.198795
     10740    0.198948
     10760    0.199096
     10780    0.199243
     10800     0.19938
     10820    0.199521
     10840     0.19967
     10860    0.199811
     10880    0.199959
     10900    0.200103
     10920    0.200247
     10940    0.200394
     10960    0.200542
     10980    0.200679
     11000    0.200828
     11020    0.200972
     11040    0.201113
     11060    0.201265
     11080    0.201422
     11100     0.20157
     11120    0.201721
     11140    0.201863
     11160    0.202021
     11180     0.20217
     11200    0.202307
     11220    0.202453
     11240    0.202601
     11260    0.202741
     11280    0.202883
     11300    0.203035
     11320    0.203182
     11340     0.20334
     11360    0.203485
     11380    0.203635
     11400    0.203778
     11420    0.203921
     11440    0.204063
     11460    0.204214
     11480    0.204358
     11500     0.20451
     11520    0.204648
     11540    0.204799
     11560    0.204957
     11580    0.205106
     11600    0.205257
     11620    0.205404
     11640    0.205542
     11660    0.205691
     11680     0.20584
     11700    0.205983
     11720    0.206135
     11740    0.206279
     11760    0.206426
     11780     0.20657
     11800    0.206725
     11820    0.206868
     11840    0.207015
     11860    0.207167
     11880    0.207311
     11900    0.207446
     11920    0.207603
     11940    0.207742
     11960    0.207884
     11980    0.208036
     12000    0.208187
     12020    0.208336
     12040    0.208484
     12060    0.208632
     12080    0.208783
     12100    0.208936
     12120    0.209081
     12140    0.209219
     12160    0.209367
     12180    0.209515
     12200    0.209657
     12220      0.2098
     12240    0.209943
     12260    0.210092
     12280    0.210235
     12300    0.210368
     12320     0.21051
     12340    0.210641
     12360    0.210778
     12380    0.210909
     12400    0.211044
     12420    0.211191
     12440    0.211332
     12460    0.211476
     12480    0.211604
     12500     0.21174
     12520    0.211883
     12540    0.212018
     12560    0.212167
     12580    0.212308
     12600     0.21245
     12620    0.212585
     12640    0.212731
     12660    0.212867
     12680    0.213009
     12700    0.213138
     12720    0.213272
     12740     0.21341
     12760    0.213548
     12780     0.21368
     12800    0.213823
     12820    0.213964
     12840    0.214098
     12860    0.214232
     12880    0.214374
     12900    0.214517
     12920    0.214661
     12940    0.214803
     12960    0.214929
     12980    0.215073
     13000    0.215218
     13020    0.215361
     13040     0.21551
     13060    0.215646
     13080    0.215785
     13100    0.215925
     13120     0.21607
     13140    0.216205
     13160    0.216343
     13180    0.216478
     13200    0.216623
     13220     0.21676
     13240    0.216898
     13260    0.217031
     13280    0.217166
     13300    0.217308
     13320    0.217446
     13340    0.217575
     13360    0.217709
     13380    0.217846
     13400    0.217985
     13420    0.218118
     13440    0.218253
     13460    0.218389
     13480    0.218523
     13500    0.218655
     13520    0.218793
     13540    0.218925
     13560    0.219063
     13580    0.219199
     13600    0.219332
     13620    0.219467
     13640    0.219595
     13660    0.219732
     13680    0.219849
     13700     0.21998
     13720    0.220114
     13740    0.220247
     13760     0.22039
     13780    0.220528
     13800     0.22066
     13820    0.220797
     13840    0.220941
     13860    0.221075
     13880    0.221214
     13900    0.221354
     13920    0.221491
     13940    0.221623
     13960    0.221752
     13980    0.221894
     14000    0.222038
     14020    0.222166
     14040    0.222301
     14060    0.222437
     14080     0.22257
     14100    0.222708
     14120    0.222833
     14140    0.222958
     14160    0.223093
     14180    0.223224
     14200    0.223342
     14220    0.223465
     14240    0.223599
     14260    0.223724
     14280    0.223853
     14300    0.223985
     14320    0.224118
     14340    0.224256
     14360    0.224393
     14380    0.224526
     14400    0.224663
     14420    0.224801
     14440    0.224936
     14460     0.22507
     14480    0.225208
     14500    0.225348
     14520    0.225479
     14540    0.225605
     14560    0.225732
     14580    0.225863
     14600    0.225995
     14620    0.226131
     14640    0.226253
     14660    0.226381
     14680    0.226511
     14700    0.226642
     14720    0.226771
     14740    0.226903
     14760    0.227025
     14780    0.227157
     14800     0.22728
     14820    0.227414
     14840    0.227539
     14860    0.227663
     14880    0.227783
     14900    0.227911
     14920    0.228038
     14940     0.22817
     14960    0.228293
     14980     0.22842
     15000    0.228553
     15020    0.228673
     15040      0.2288
     15060    0.228929
     15080    0.229065
     15100    0.229199
     15120    0.229323
     15140    0.229447
     15160    0.229568
     15180    0.229692
     15200    0.229817
     15220    0.229936
     15240    0.230064
     15260    0.230186
     15280    0.230302
     15300     0.23043
     15320     0.23055
     15340    0.230669
     15360    0.230792
     15380    0.230918
     15400    0.231048
     15420    0.231176
     15440    0.231305
     15460    0.231433
     15480    0.231569
     15500    0.231689
     15520    0.231812
     15540    0.231928
     15560    0.232049
     15580    0.232174
     15600    0.232297
     15620    0.232432
     15640    0.232559
     15660    0.232686
     15680    0.232815
     15700    0.232938
     15720    0.233062
     15740    0.233189
     15760     0.23332
     15780    0.233437
     15800    0.233559
     15820    0.233685
     15840    0.233812
     15860    0.233944
     15880    0.234074
     15900    0.234204
     15920    0.234343
     15940    0.234486
     15960    0.234618
     15980    0.234753
     16000    0.234878
     16020    0.235007
     16040    0.235138
     16060    0.235261
     16080    0.235394
     16100    0.235525
     16120    0.235651
     16140    0.235786
     16160     0.23591
     16180    0.236036
     16200    0.236171
     16220    0.236303
     16240    0.236436
     16260    0.236561
     16280    0.236694
     16300    0.236828
     16320    0.236969
     16340    0.237105
     16360     0.23724
     16380    0.237375
     16400    0.237514
     16420    0.237646
     16440    0.237781
     16460    0.237911
     16480    0.238037
     16500    0.238179
     16520     0.23831
     16540    0.238442
     16560    0.238572
     16580    0.238702
     16600    0.238825
     16620    0.238955
     16640    0.239084
     16660    0.239218
     16680    0.239354
     16700    0.239486
     16720    0.239613
     16740    0.239737
     16760    0.239865
     16780    0.239995
     16800    0.240125
     16820    0.240251
     16840    0.240374
     16860    0.240494
     16880    0.240611
     16900    0.240722
     16920    0.240852
     16940    0.240977
     16960    0.241103
     16980    0.241229
     17000    0.241354
     17020    0.241482
     17040    0.241615
     17060    0.241746
     17080    0.241876
     17100    0.242002
     17120    0.242139
     17140    0.242264
     17160    0.242385
     17180    0.242515
     17200    0.242642
     17220    0.242757
